# CH505TF SAXS T-Jumps Second Right Vectors
Double Exponential Decay Fit | Calculated with tr_tjump_saxs_analysis Python package | 25 February 2024time,double_exp_decay_model
3.000000000000000000e+00,2.774622373445275736e-01
3.997997997997997821e+00,2.849490521110638608e-01
4.995995995995995642e+00,2.914478504695363070e-01
5.993993993993994351e+00,2.970960481634363770e-01
6.991991991991992172e+00,3.020119368482128697e-01
7.989989989989989994e+00,3.062973456014566609e-01
8.987987987987988703e+00,3.100399320291719052e-01
9.985985985985987412e+00,3.133151545174605035e-01
1.098398398398398434e+01,3.161879700047973696e-01
1.198198198198198305e+01,3.187142954743545920e-01
1.297997997997997999e+01,3.209422660495933610e-01
1.397797797797797870e+01,3.229133179999630898e-01
1.497597597597597741e+01,3.246631210240706333e-01
1.597397397397397434e+01,3.262223807864610969e-01
1.697197197197197482e+01,3.276175297648904472e-01
1.796996996996996998e+01,3.288713219519830977e-01
1.896796796796796869e+01,3.300033447919155094e-01
1.996596596596596740e+01,3.310304598705759993e-01
2.096396396396396611e+01,3.319671822746190770e-01
2.196196196196196126e+01,3.328260071549016819e-01
2.295995995995995997e+01,3.336176908418965192e-01
2.395795795795795868e+01,3.343514928381112750e-01
2.495595595595595739e+01,3.350353841322826209e-01
2.595395395395395610e+01,3.356762265223640074e-01
2.695195195195195481e+01,3.362799269820290204e-01
2.794994994994994997e+01,3.368515705439001362e-01
2.894794794794794868e+01,3.373955346893413587e-01
2.994594594594594739e+01,3.379155878185579054e-01
3.094394394394394610e+01,3.384149740165548481e-01
3.194194194194194480e+01,3.388964860221693742e-01
3.293993993993993996e+01,3.393625280419600987e-01
3.393793793793793867e+01,3.398151698222517947e-01
3.493593593593593738e+01,3.402561931959426911e-01
3.593393393393393609e+01,3.406871321513657014e-01
3.693193193193193480e+01,3.411093073247439822e-01
3.792992992992993351e+01,3.415238556923105850e-01
3.892792792792793222e+01,3.419317561301608022e-01
3.992592592592593093e+01,3.423338514169235181e-01
4.092392392392392253e+01,3.427308671743096724e-01
4.192192192192192124e+01,3.431234281716936119e-01
4.291991991991991995e+01,3.435120723615762151e-01
4.391791791791791866e+01,3.438972629617259580e-01
4.491591591591591737e+01,3.442793988558405793e-01
4.591391391391391608e+01,3.446588235467436534e-01
4.691191191191191479e+01,3.450358328635599880e-01
4.790990990990991349e+01,3.454106815962787458e-01
4.890790790790791220e+01,3.457835892069817674e-01
4.990590590590591091e+01,3.461547447462362537e-01
5.090390390390390962e+01,3.465243110852715969e-01
5.190190190190190123e+01,3.468924285591613588e-01
5.289989989989989994e+01,3.472592181029818814e-01
5.389789789789789864e+01,3.476247839515108629e-01
5.489589589589589735e+01,3.479892159632067550e-01
5.589389389389389606e+01,3.483525916207596551e-01
5.689189189189189477e+01,3.487149777532243533e-01
5.788988988988989348e+01,3.490764320184834846e-01
5.888788788788789219e+01,3.494370041793961601e-01
5.988588588588589090e+01,3.497967372023437216e-01
6.088388388388388961e+01,3.501556682028915679e-01
6.188188188188188121e+01,3.505138292598424243e-01
6.287987987987987992e+01,3.508712481159977914e-01
6.387787787787787863e+01,3.512279487813945167e-01
6.487587587587587734e+01,3.515839520525886330e-01
6.587387387387387605e+01,3.519392759596708387e-01
6.687187187187187476e+01,3.522939361510705192e-01
6.786986986986987347e+01,3.526479462248072183e-01
6.886786786786787218e+01,3.530013180136410966e-01
6.986586586586587089e+01,3.533540618305406333e-01
7.086386386386386960e+01,3.537061866799869891e-01
7.186186186186186831e+01,3.540577004398729466e-01
7.285985985985986702e+01,3.544086100180859900e-01
7.385785785785786572e+01,3.547589214873009267e-01
7.485585585585586443e+01,3.551086402010127374e-01
7.585385385385386314e+01,3.554577708934223423e-01
7.685185185185186185e+01,3.558063177654208764e-01
7.784984984984984635e+01,3.561542845586077588e-01
7.884784784784784506e+01,3.565016746190086683e-01
7.984584584584584377e+01,3.568484909519253345e-01
8.084384384384384248e+01,3.571947362691527128e-01
8.184184184184184119e+01,3.575404130296250815e-01
8.283983983983983990e+01,3.578855234744056091e-01
8.383783783783783861e+01,3.582300696568071485e-01
8.483583583583583732e+01,3.585740534683206082e-01
8.583383383383383602e+01,3.589174766609360967e-01
8.683183183183183473e+01,3.592603408663576081e-01
8.782982982982983344e+01,3.596026476125432914e-01
8.882782782782783215e+01,3.599443983379453926e-01
8.982582582582583086e+01,3.602855944037675062e-01
9.082382382382382957e+01,3.606262371045171333e-01
9.182182182182182828e+01,3.609663276770891382e-01
9.281981981981982699e+01,3.613058673085866035e-01
9.381781781781782570e+01,3.616448571430521675e-01
9.481581581581582441e+01,3.619832982872639437e-01
9.581381381381382312e+01,3.623211918157246969e-01
9.681181181181182183e+01,3.626585387749567957e-01
9.780980980980982054e+01,3.629953401872003660e-01
9.880780780780781924e+01,3.633315970535961892e-01
9.980580580580580374e+01,3.636673103569271204e-01
1.008038038038038025e+02,3.640024810639771458e-01
1.018018018018018012e+02,3.643371101275630908e-01
1.027997997997997999e+02,3.646711984882839430e-01
1.037977977977977986e+02,3.650047470760264812e-01
1.047957957957957973e+02,3.653377568112623486e-01
1.057937937937937960e+02,3.656702286061644380e-01
1.067917917917917947e+02,3.660021633655685114e-01
1.077897897897897934e+02,3.663335619878010929e-01
1.087877877877877921e+02,3.666644253653925656e-01
1.097857857857857908e+02,3.669947543856914018e-01
1.107837837837837895e+02,3.673245499313931850e-01
1.117817817817817883e+02,3.676538128809959116e-01
1.127797797797797870e+02,3.679825441091930660e-01
1.137777777777777857e+02,3.683107444872116831e-01
1.147757757757757844e+02,3.686384148831035601e-01
1.157737737737737831e+02,3.689655561619969992e-01
1.167717717717717818e+02,3.692921691863129130e-01
1.177697697697697805e+02,3.696182548159516745e-01
1.187677677677677792e+02,3.699438139084545440e-01
1.197657657657657779e+02,3.702688473191418916e-01
1.207637637637637624e+02,3.705933559012339340e-01
1.217617617617617611e+02,3.709173405059535966e-01
1.227597597597597598e+02,3.712408019826162198e-01
1.237577577577577586e+02,3.715637411787069966e-01
1.247557557557557573e+02,3.718861589399474754e-01
1.257537537537537560e+02,3.722080561103535690e-01
1.267517517517517547e+02,3.725294335322858474e-01
1.277497497497497534e+02,3.728502920464925596e-01
1.287477477477477521e+02,3.731706324921475471e-01
1.297457457457457508e+02,3.734904557068828845e-01
1.307437437437437495e+02,3.738097625268175239e-01
1.317417417417417482e+02,3.741285537865821076e-01
1.327397397397397469e+02,3.744468303193402292e-01
1.337377377377377456e+02,3.747645929568078627e-01
1.347357357357357444e+02,3.750818425292698488e-01
1.357337337337337431e+02,3.753985798655944395e-01
1.367317317317317418e+02,3.757148057932460095e-01
1.377297297297297405e+02,3.760305211382967139e-01
1.387277277277277392e+02,3.763457267254365357e-01
1.397257257257257379e+02,3.766604233779820010e-01
1.407237237237237366e+02,3.769746119178843391e-01
1.417217217217217353e+02,3.772882931657369765e-01
1.427197197197197340e+02,3.776014679407816432e-01
1.437177177177177327e+02,3.779141370609142569e-01
1.447157157157157314e+02,3.782263013426906406e-01
1.457137137137137302e+02,3.785379616013310744e-01
1.467117117117117289e+02,3.788491186507251252e-01
1.477097097097097276e+02,3.791597733034355322e-01
1.487077077077077263e+02,3.794699263707022041e-01
1.497057057057057250e+02,3.797795786624460490e-01
1.507037037037037237e+02,3.800887309872721387e-01
1.517017017017017224e+02,3.803973841524729282e-01
1.526996996996996927e+02,3.807055389640316978e-01
1.536976976976976914e+02,3.810131962266251615e-01
1.546956956956956901e+02,3.813203567436264096e-01
1.556936936936936888e+02,3.816270213171075731e-01
1.566916916916916875e+02,3.819331907478424326e-01
1.576896896896896862e+02,3.822388658353091939e-01
1.586876876876876850e+02,3.825440473776926531e-01
1.596856856856856837e+02,3.828487361718867499e-01
1.606836836836836824e+02,3.831529330134971767e-01
1.616816816816816811e+02,3.834566386968431551e-01
1.626796796796796798e+02,3.837598540149603776e-01
1.636776776776776785e+02,3.840625797596027291e-01
1.646756756756756772e+02,3.843648167212448952e-01
1.656736736736736759e+02,3.846665656890842500e-01
1.666716716716716746e+02,3.849678274510434095e-01
1.676696696696696733e+02,3.852686027937719526e-01
1.686676676676676720e+02,3.855688925026489744e-01
1.696656656656656708e+02,3.858686973617848626e-01
1.706636636636636695e+02,3.861680181540236845e-01
1.716616616616616682e+02,3.864668556609451855e-01
1.726596596596596669e+02,3.867652106628667319e-01
1.736576576576576656e+02,3.870630839388456979e-01
1.746556556556556643e+02,3.873604762666813528e-01
1.756536536536536630e+02,3.876573884229166933e-01
1.766516516516516617e+02,3.879538211828410521e-01
1.776496496496496604e+02,3.882497753204917634e-01
1.786476476476476591e+02,3.885452516086561614e-01
1.796456456456456579e+02,3.888402508188736895e-01
1.806436436436436566e+02,3.891347737214382319e-01
1.816416416416416553e+02,3.894288210853996124e-01
1.826396396396396540e+02,3.897223936785659815e-01
1.836376376376376527e+02,3.900154922675057589e-01
1.846356356356356514e+02,3.903081176175494660e-01
1.856336336336336501e+02,3.906002704927921121e-01
1.866316316316316488e+02,3.908919516560948049e-01
1.876296296296296475e+02,3.911831618690867485e-01
1.886276276276276462e+02,3.914739018921676861e-01
1.896256256256256449e+02,3.917641724845095652e-01
1.906236236236236437e+02,3.920539744040582031e-01
1.916216216216216424e+02,3.923433084075359512e-01
1.926196196196196411e+02,3.926321752504433604e-01
1.936176176176176398e+02,3.929205756870608468e-01
1.946156156156156385e+02,3.932085104704512446e-01
1.956136136136136088e+02,3.934959803524612498e-01
1.966116116116116075e+02,3.937829860837237517e-01
1.976096096096096062e+02,3.940695284136596643e-01
1.986076076076076049e+02,3.943556080904797589e-01
1.996056056056056036e+02,3.946412258611868840e-01
2.006036036036036023e+02,3.949263824715776305e-01
2.016016016016016010e+02,3.952110786662444974e-01
2.025995995995995997e+02,3.954953151885777785e-01
2.035975975975975985e+02,3.957790927807673942e-01
2.045955955955955972e+02,3.960624121838048906e-01
2.055935935935935959e+02,3.963452741374856592e-01
2.065915915915915946e+02,3.966276793804102141e-01
2.075895895895895933e+02,3.969096286499869120e-01
2.085875875875875920e+02,3.971911226824332286e-01
2.095855855855855907e+02,3.974721622127779797e-01
2.105835835835835894e+02,3.977527479748632633e-01
2.115815815815815881e+02,3.980328807013463477e-01
2.125795795795795868e+02,3.983125611237013364e-01
2.135775775775775855e+02,3.985917899722215552e-01
2.145755755755755843e+02,3.988705679760209954e-01
2.155735735735735830e+02,3.991488958630364792e-01
2.165715715715715817e+02,3.994267743600295462e-01
2.175695695695695804e+02,3.997042041925882305e-01
2.185675675675675791e+02,3.999811860851291145e-01
2.195655655655655778e+02,4.002577207608990495e-01
2.205635635635635765e+02,4.005338089419770986e-01
2.215615615615615752e+02,4.008094513492765909e-01
2.225595595595595739e+02,4.010846487025466756e-01
2.235575575575575726e+02,4.013594017203745978e-01
2.245555555555555713e+02,4.016337111201871979e-01
2.255535535535535701e+02,4.019075776182530202e-01
2.265515515515515688e+02,4.021810019296842009e-01
2.275495495495495675e+02,4.024539847684380778e-01
2.285475475475475662e+02,4.027265268473192439e-01
2.295455455455455649e+02,4.029986288779816572e-01
2.305435435435435636e+02,4.032702915709298619e-01
2.315415415415415623e+02,4.035415156355215416e-01
2.325395395395395610e+02,4.038123017799688519e-01
2.335375375375375597e+02,4.040826507113404742e-01
2.345355355355355584e+02,4.043525631355635586e-01
2.355335335335335571e+02,4.046220397574253336e-01
2.365315315315315559e+02,4.048910812805751602e-01
2.375295295295295261e+02,4.051596884075262528e-01
2.385275275275275249e+02,4.054278618396575662e-01
2.395255255255255236e+02,4.056956022772155723e-01
2.405235235235235223e+02,4.059629104193162030e-01
2.415215215215215210e+02,4.062297869639464043e-01
2.425195195195195197e+02,4.064962326079663568e-01
2.435175175175175184e+02,4.067622480471109192e-01
2.445155155155155171e+02,4.070278339759917374e-01
2.455135135135135158e+02,4.072929910880989102e-01
2.465115115115115145e+02,4.075577200758027652e-01
2.475095095095095132e+02,4.078220216303557466e-01
2.485075075075075119e+02,4.080858964418942469e-01
2.495055055055055107e+02,4.083493451994403278e-01
2.505035035035035094e+02,4.086123685909034409e-01
2.515015015015015081e+02,4.088749673030825926e-01
2.524994994994995068e+02,4.091371420216676213e-01
2.534974974974975055e+02,4.093988934312413619e-01
2.544954954954955042e+02,4.096602222152814221e-01
2.554934934934935029e+02,4.099211290561615151e-01
2.564914914914915016e+02,4.101816146351540127e-01
2.574894894894895288e+02,4.104416796324310557e-01
2.584874874874874990e+02,4.107013247270666634e-01
2.594854854854854693e+02,4.109605505970381767e-01
2.604834834834834965e+02,4.112193579192288118e-01
2.614814814814814667e+02,4.114777473694282706e-01
2.624794794794794939e+02,4.117357196223355165e-01
2.634774774774774642e+02,4.119932753515599955e-01
2.644754754754754913e+02,4.122504152296235791e-01
2.654734734734734616e+02,4.125071399279622297e-01
2.664714714714714887e+02,4.127634501169278325e-01
2.674694694694694590e+02,4.130193464657899716e-01
2.684674674674674861e+02,4.132748296427375956e-01
2.694654654654654564e+02,4.135299003148807384e-01
2.704634634634634835e+02,4.137845591482522956e-01
2.714614614614614538e+02,4.140388068078099115e-01
2.724594594594594810e+02,4.142926439574375341e-01
2.734574574574574513e+02,4.145460712599470798e-01
2.744554554554554784e+02,4.147990893770804322e-01
2.754534534534534487e+02,4.150516989695109960e-01
2.764514514514514758e+02,4.153039006968453073e-01
2.774494494494494461e+02,4.155556952176251984e-01
2.784474474474474732e+02,4.158070831893289077e-01
2.794454454454454435e+02,4.160580652683731895e-01
2.804434434434434706e+02,4.163086421101150347e-01
2.814414414414414409e+02,4.165588143688532807e-01
2.824394394394394681e+02,4.168085826978301656e-01
2.834374374374374383e+02,4.170579477492334375e-01
2.844354354354354655e+02,4.173069101741976872e-01
2.854334334334334358e+02,4.175554706228060686e-01
2.864314314314314629e+02,4.178036297440924085e-01
2.874294294294294332e+02,4.180513881860422609e-01
2.884274274274274603e+02,4.182987465955951834e-01
2.894254254254254306e+02,4.185457056186461244e-01
2.904234234234234577e+02,4.187922659000470338e-01
2.914214214214214280e+02,4.190384280836088604e-01
2.924194194194194552e+02,4.192841928121029405e-01
2.934174174174174254e+02,4.195295607272627736e-01
2.944154154154154526e+02,4.197745324697857994e-01
2.954134134134134229e+02,4.200191086793350070e-01
2.964114114114114500e+02,4.202632899945404343e-01
2.974094094094094203e+02,4.205070770530011104e-01
2.984074074074074474e+02,4.207504704912865545e-01
2.994054054054054177e+02,4.209934709449383861e-01
3.004034034034034448e+02,4.212360790484722672e-01
3.014014014014014151e+02,4.214782954353791800e-01
3.023993993993993854e+02,4.217201207381273687e-01
3.033973973973974125e+02,4.219615555881638391e-01
3.043953953953953828e+02,4.222026006159161904e-01
3.053933933933934100e+02,4.224432564507939469e-01
3.063913913913913802e+02,4.226835237211904461e-01
3.073893893893894074e+02,4.229234030544845035e-01
3.083873873873873777e+02,4.231628950770418562e-01
3.093853853853854048e+02,4.234020004142168836e-01
3.103833833833833751e+02,4.236407196903544392e-01
3.113813813813814022e+02,4.238790535287911831e-01
3.123793793793793725e+02,4.241170025518571918e-01
3.133773773773773996e+02,4.243545673808780672e-01
3.143753753753753699e+02,4.245917486361758808e-01
3.153733733733733970e+02,4.248285469370713940e-01
3.163713713713713673e+02,4.250649629018851683e-01
3.173693693693693945e+02,4.253009971479395634e-01
3.183673673673673647e+02,4.255366502915602922e-01
3.193653653653653919e+02,4.257719229480776413e-01
3.203633633633633622e+02,4.260068157318286919e-01
3.213613613613613893e+02,4.262413292561584854e-01
3.223593593593593596e+02,4.264754641334216889e-01
3.233573573573573867e+02,4.267092209749844267e-01
3.243553553553553570e+02,4.269426003912255574e-01
3.253533533533533841e+02,4.271756029915384500e-01
3.263513513513513544e+02,4.274082293843325386e-01
3.273493493493493816e+02,4.276404801770350428e-01
3.283473473473473518e+02,4.278723559760922446e-01
3.293453453453453790e+02,4.281038573869713204e-01
3.303433433433433493e+02,4.283349850141618953e-01
3.313413413413413764e+02,4.285657394611775417e-01
3.323393393393393467e+02,4.287961213305573893e-01
3.333373373373373738e+02,4.290261312238677904e-01
3.343353353353353441e+02,4.292557697417036522e-01
3.353333333333333712e+02,4.294850374836902684e-01
3.363313313313313415e+02,4.297139350484846521e-01
3.373293293293293686e+02,4.299424630337774778e-01
3.383273273273273389e+02,4.301706220362941924e-01
3.393253253253253661e+02,4.303984126517966802e-01
3.403233233233233364e+02,4.306258354750851503e-01
3.413213213213213635e+02,4.308528910999991357e-01
3.423193193193193338e+02,4.310795801194197141e-01
3.433173173173173609e+02,4.313059031252704512e-01
3.443153153153153312e+02,4.315318607085192326e-01
3.453133133133133015e+02,4.317574534591797075e-01
3.463113113113113286e+02,4.319826819663130646e-01
3.473093093093092989e+02,4.322075468180291979e-01
3.483073073073073260e+02,4.324320486014885390e-01
3.493053053053052963e+02,4.326561879029034441e-01
3.503033033033033234e+02,4.328799653075399156e-01
3.513013013013012937e+02,4.331033813997187121e-01
3.522992992992993209e+02,4.333264367628172908e-01
3.532972972972972912e+02,4.335491319792712517e-01
3.542952952952953183e+02,4.337714676305756134e-01
3.552932932932932886e+02,4.339934442972867568e-01
3.562912912912913157e+02,4.342150625590234791e-01
3.572892892892892860e+02,4.344363229944687710e-01
3.582872872872873131e+02,4.346572261813712590e-01
3.592852852852852834e+02,4.348777726965468160e-01
3.602832832832833105e+02,4.350979631158800043e-01
3.612812812812812808e+02,4.353177980143254078e-01
3.622792792792793080e+02,4.355372779659094085e-01
3.632772772772772782e+02,4.357564035437314631e-01
3.642752752752753054e+02,4.359751753199658797e-01
3.652732732732732757e+02,4.361935938658629275e-01
3.662712712712713028e+02,4.364116597517506690e-01
3.672692692692692731e+02,4.366293735470361259e-01
3.682672672672673002e+02,4.368467358202072215e-01
3.692652652652652705e+02,4.370637471388337802e-01
3.702632632632632976e+02,4.372804080695693596e-01
3.712612612612612679e+02,4.374967191781524711e-01
3.722592592592592950e+02,4.377126810294083015e-01
3.732572572572572653e+02,4.379282941872499890e-01
3.742552552552552925e+02,4.381435592146801228e-01
3.752532532532532628e+02,4.383584766737924632e-01
3.762512512512512899e+02,4.385730471257729968e-01
3.772492492492492602e+02,4.387872711309017681e-01
3.782472472472472873e+02,4.390011492485540456e-01
3.792452452452452576e+02,4.392146820372020422e-01
3.802432432432432847e+02,4.394278700544162475e-01
3.812412412412412550e+02,4.396407138568668160e-01
3.822392392392392821e+02,4.398532140003251767e-01
3.832372372372372524e+02,4.400653710396654761e-01
3.842352352352352796e+02,4.402771855288656888e-01
3.852332332332332498e+02,4.404886580210095604e-01
3.862312312312312770e+02,4.406997890682878838e-01
3.872292292292292473e+02,4.409105792219996101e-01
3.882272272272272176e+02,4.411210290325537908e-01
3.892252252252252447e+02,4.413311390494707442e-01
3.902232232232232150e+02,4.415409098213833872e-01
3.912212212212212421e+02,4.417503418960391226e-01
3.922192192192192124e+02,4.419594358203005058e-01
3.932172172172172395e+02,4.421681921401474646e-01
3.942152152152152098e+02,4.423766114006783545e-01
3.952132132132132369e+02,4.425846941461112349e-01
3.962112112112112072e+02,4.427924409197857014e-01
3.972092092092092344e+02,4.429998522641638292e-01
